Time	Avg. Solid Temp. [K]	
1.1764706e-05	999.95269
2.5882353e-05	999.89637
4.2677485e-05	999.82952
6.2621704e-05	999.75013
8.6056161e-05	999.65675
0.00011375143	999.54617
0.00014657545	999.41474
0.00018536748	999.25888
0.00022824287	999.08592
0.00026886167	998.92142
0.00030367778	998.77999
0.00033532879	998.65119
0.00036554112	998.52811
0.00039575344	998.40494
0.00042596577	998.2817
0.00045466748	998.16457
0.00048336919	998.04737
0.00051207091	997.93011
0.00054077262	997.81279
0.00056947433	997.6954
0.00059817604	997.57796
0.00062687775	997.46045
0.00065557946	997.34288
0.00068428117	997.22525
0.00071298289	997.10756
0.0007416846	996.98981
0.00077038631	996.87201
0.00079908802	996.75414
0.00082778973	996.63621
0.00085649144	996.51823
0.00088519315	996.40018
0.00091389487	996.28208
0.00094259658	996.16391
0.00097129829	996.04568
0.001	995.92739
0.001030303	995.80244
0.0010606061	995.67742
0.0010909091	995.55234
0.0011212121	995.42718
0.0011515152	995.30197
0.0011818182	995.17669
0.0012121212	995.05135
0.0012424242	994.92595
0.0012727273	994.80048
0.0013030303	994.67496
0.0013333333	994.54939
0.0013636364	994.42377
0.0013939394	994.2981
0.0014242424	994.1724
0.0014545455	994.04665
0.0014848485	993.92087
0.0015151515	993.79505
0.0015454545	993.66921
0.0015757576	993.54334
0.0016060606	993.41745
0.0016363636	993.29154
0.0016666667	993.16562
0.0016969697	993.03968
0.0017245179	992.92518
0.0017520661	992.81068
0.0017796143	992.69617
0.0018071625	992.58166
0.0018347107	992.46715
0.001862259	992.35264
0.0018898072	992.23814
0.0019173554	992.12364
0.0019449036	992.00914
0.0019724518	991.89465
0.002	991.78017
0.0020294118	991.65796
0.0020588235	991.53575
0.0020882353	991.41356
0.0021176471	991.29138
0.0021470588	991.16921
0.0021764706	991.04706
0.0022058824	990.92492
0.0022352941	990.80279
0.0022647059	990.68068
0.0022941176	990.55859
0.0023235294	990.43651
0.0023529412	990.31444
0.0023823529	990.1924
0.0024117647	990.07037
0.0024411765	989.94836
0.0024705882	989.82637
0.0025	989.70441
0.0025294118	989.58246
0.0025588235	989.46054
0.0025882353	989.33864
0.0026176471	989.21677
0.0026470588	989.09492
0.0026764706	988.9731
0.0027058824	988.8513
0.0027352941	988.72954
0.0027647059	988.6078
0.0027941176	988.48609
0.0028235294	988.36442
0.0028529412	988.24278
0.0028823529	988.12117
0.0029117647	987.9996
0.0029411765	987.87807
0.0029705882	987.75658
0.003	987.63512
0.0030294118	987.51371
0.0030588235	987.39235
0.0030882353	987.27103
0.0031176471	987.14976
0.0031470588	987.02854
0.0031764706	986.90738
0.0032058824	986.78627
0.0032352941	986.66522
0.0032647059	986.54422
0.0032941176	986.42328
0.0033235294	986.3024
0.0033529412	986.18157
0.0033823529	986.06079
0.0034117647	985.94006
0.0034411765	985.81939
0.0034705882	985.69876
0.0035	985.57818
0.0035294118	985.45765
0.0035588235	985.33716
0.0035882353	985.21672
0.0036176471	985.09631
0.0036470588	984.97596
0.0036764706	984.85564
0.0037058824	984.73536
0.0037352941	984.61513
0.0037647059	984.49493
0.0037941176	984.37478
0.0038235294	984.25467
0.0038529412	984.1346
0.0038823529	984.01457
0.0039117647	983.89458
0.0039411765	983.77463
0.0039705882	983.65473
0.004	983.53486
0.0040294118	983.41504
0.0040588235	983.29527
0.0040882353	983.17553
0.0041176471	983.05584
0.0041470588	982.9362
0.0041764706	982.8166
0.0042058824	982.69704
0.0042352941	982.57753
0.0042647059	982.45806
0.0042941176	982.33864
0.0043235294	982.21927
0.0043529412	982.09994
0.0043823529	981.98065
0.0044117647	981.86141
0.0044411765	981.74222
0.0044705882	981.62306
0.0045	981.50395
0.0045294118	981.38488
0.0045588235	981.26586
0.0045882353	981.14687
0.0046176471	981.02793
0.0046470588	980.90902
0.0046764706	980.79015
0.0047058824	980.67132
0.0047352941	980.55253
0.0047647059	980.43377
0.0047941176	980.31505
0.0048235294	980.19636
0.0048529412	980.0777
0.0048823529	979.95908
0.0049117647	979.84048
0.0049411765	979.72192
0.0049705882	979.60338
0.005	979.48488
0.0050294118	979.3664
0.0050588235	979.24795
0.0050882353	979.12952
0.0051176471	979.01113
0.0051470588	978.89275
0.0051764706	978.7744
0.0052058824	978.65608
0.0052352941	978.53777
0.0052647059	978.41949
0.0052941176	978.30123
0.0053235294	978.183
0.0053529412	978.06478
0.0053823529	977.94659
0.0054117647	977.82841
0.0054411765	977.71026
0.0054705882	977.59213
0.0055	977.47401
0.0055294118	977.35592
0.0055588235	977.23785
0.0055882353	977.11979
0.0056176471	977.00176
0.0056470588	976.88374
0.0056764706	976.76574
0.0057058824	976.64777
0.0057352941	976.52981
0.0057647059	976.41186
0.0057941176	976.29394
0.0058235294	976.17603
0.0058529412	976.05815
0.0058823529	975.94028
0.0059117647	975.82243
0.0059411765	975.70459
0.0059705882	975.58678
0.006	975.46899
0.006030303	975.34764
0.0060606061	975.22631
0.0060909091	975.10501
0.0061212121	974.98373
0.0061515152	974.86246
0.0061818182	974.74122
0.0062121212	974.62001
0.0062424242	974.49881
0.0062727273	974.37764
0.0063030303	974.2565
0.0063333333	974.13537
0.0063636364	974.01428
0.0063939394	973.89321
0.0064242424	973.77216
0.0064545455	973.65115
0.0064848485	973.53016
0.0065151515	973.4092
0.0065454545	973.28827
0.0065757576	973.16737
0.0066060606	973.04649
0.0066363636	972.92565
0.0066666667	972.80484
0.0066969697	972.68407
0.0067272727	972.56332
0.0067575758	972.44261
0.0067878788	972.32193
0.0068181818	972.20128
0.0068484848	972.08067
0.0068787879	971.96009
0.0069090909	971.83955
0.0069393939	971.71904
0.006969697	971.59857
0.007	971.47814
0.007030303	971.35774
0.0070606061	971.23737
0.0070909091	971.11705
0.0071212121	970.99676
0.0071515152	970.87651
0.0071818182	970.75629
0.0072121212	970.63612
0.0072424242	970.51598
0.0072727273	970.39589
0.0073030303	970.27583
0.0073333333	970.15581
0.0073636364	970.03584
0.0073939394	969.9159
0.0074242424	969.796
0.0074545455	969.67615
0.0074848485	969.55634
0.0075151515	969.43657
0.0075454545	969.31684
0.0075757576	969.19716
0.0076060606	969.07752
0.0076363636	968.95792
0.0076666667	968.83837
0.0076969697	968.71887
0.0077272727	968.59941
0.0077575758	968.47999
0.0077878788	968.36063
0.0078181818	968.24131
0.0078484848	968.12204
0.0078787879	968.00281
0.0079090909	967.88364
0.0079393939	967.76453
0.007969697	967.64546
0.008	967.52645
0.008030303	967.4075
0.0080606061	967.2886
0.0080909091	967.16976
0.0081212121	967.05098
0.0081515152	966.93226
0.0081818182	966.81361
0.0082121212	966.69501
0.0082424242	966.57648
0.0082727273	966.45802
0.0083030303	966.33962
0.0083333333	966.22128
0.0083636364	966.10302
0.0083939394	965.98482
0.0084242424	965.8667
0.0084545455	965.74864
0.0084848485	965.63066
0.0085151515	965.51274
0.0085454545	965.3949
0.0085757576	965.27713
0.0086060606	965.15944
0.0086363636	965.04182
0.0086666667	964.92427
0.0086969697	964.8068
0.0087272727	964.6894
0.0087575758	964.57208
0.0087878788	964.45484
0.0088181818	964.33768
0.0088484848	964.22059
0.0088787879	964.10358
0.0089090909	963.98665
0.0089393939	963.86981
0.008969697	963.75304
0.009	963.63636
0.009030303	963.51976
0.0090606061	963.40324
0.0090909091	963.28681
0.0091212121	963.17046
0.0091515152	963.05419
0.0091818182	962.938
0.0092121212	962.8219
0.0092424242	962.70588
0.0092727273	962.58994
0.0093030303	962.47408
0.0093333333	962.35831
0.0093636364	962.24261
0.0093939394	962.127
0.0094242424	962.01146
0.0094545455	961.89601
0.0094848485	961.78064
0.0095151515	961.66535
0.0095454545	961.55014
0.0095757576	961.43501
0.0096060606	961.31996
0.0096363636	961.20499
0.0096666667	961.0901
0.0096969697	960.97529
0.0097272727	960.86056
0.0097575758	960.7459
0.0097878788	960.63132
0.0098181818	960.51681
0.0098484848	960.40238
0.0098787879	960.28802
0.0099090909	960.17373
0.0099393939	960.05951
0.009969697	959.94535
0.01	959.83127
0.010030303	959.71725
0.010060606	959.6033
0.010090909	959.48942
0.010121212	959.3756
0.010151515	959.26185
0.010181818	959.14815
0.010212121	959.03453
0.010242424	958.92096
0.010272727	958.80746
0.01030303	958.69401
0.010333333	958.58063
0.010363636	958.46731
0.010393939	958.35405
0.010424242	958.24085
0.010454545	958.12771
0.010484848	958.01464
0.010515152	957.90162
0.010545455	957.78866
0.010575758	957.67576
0.010606061	957.56292
0.010636364	957.45014
0.010666667	957.33742
0.01069697	957.22476
0.010727273	957.11216
0.010757576	956.99962
0.010787879	956.88714
0.010818182	956.77473
0.010848485	956.66238
0.010878788	956.55009
0.010909091	956.43786
0.010939394	956.3257
0.010969697	956.2136
0.011	956.10157
0.01103125	955.98611
0.0110625	955.87072
0.01109375	955.75541
0.011125	955.64017
0.01115625	955.525
0.0111875	955.40992
0.01121875	955.29491
0.01125	955.17999
0.01128125	955.06515
0.0113125	954.95039
0.01134375	954.83572
0.011375	954.72114
0.01140625	954.60664
0.0114375	954.49223
0.01146875	954.37791
0.0115	954.26367
0.01153125	954.14951
0.0115625	954.03544
0.01159375	953.92145
0.011625	953.80754
0.01165625	953.69372
0.0116875	953.57998
0.01171875	953.46632
0.01175	953.35273
0.01178125	953.23923
0.0118125	953.12581
0.01184375	953.01246
0.011875	952.89918
0.01190625	952.78598
0.0119375	952.67285
0.01196875	952.5598
0.012	952.44682
0.01203125	952.33391
0.0120625	952.22107
0.01209375	952.1083
0.012125	951.9956
0.01215625	951.88297
0.0121875	951.77041
0.01221875	951.65793
0.01225	951.54551
0.01228125	951.43317
0.0123125	951.3209
0.01234375	951.2087
0.012375	951.09657
0.01240625	950.98451
0.0124375	950.87253
0.01246875	950.76061
0.0125	950.64877
0.01253125	950.53701
0.0125625	950.42531
0.01259375	950.31369
0.012625	950.20215
0.01265625	950.09067
0.0126875	949.97927
0.01271875	949.86794
0.01275	949.75669
0.01278125	949.6455
0.0128125	949.53439
0.01284375	949.42335
0.012875	949.31238
0.01290625	949.20149
0.0129375	949.09066
0.01296875	948.97991
0.013	948.86922
0.01303125	948.75861
0.0130625	948.64807
0.01309375	948.53759
0.013125	948.42719
0.01315625	948.31685
0.0131875	948.20659
0.01321875	948.09639
0.01325	947.98626
0.01328125	947.8762
0.0133125	947.76621
0.01334375	947.65629
0.013375	947.54644
0.01340625	947.43665
0.0134375	947.32694
0.01346875	947.21729
0.0135	947.10771
0.01353125	946.9982
0.0135625	946.88875
0.01359375	946.77937
0.013625	946.67006
0.01365625	946.56082
0.0136875	946.45164
0.01371875	946.34253
0.01375	946.23349
0.01378125	946.12451
0.0138125	946.0156
0.01384375	945.90675
0.013875	945.79797
0.01390625	945.68925
0.0139375	945.58059
0.01396875	945.472
0.014	945.36347
0.01403125	945.255
0.0140625	945.14659
0.01409375	945.03825
0.014125	944.92997
0.01415625	944.82174
0.0141875	944.71358
0.01421875	944.60548
0.01425	944.49744
0.01428125	944.38945
0.0143125	944.28153
0.01434375	944.17366
0.014375	944.06585
0.01440625	943.9581
0.0144375	943.8504
0.01446875	943.74277
0.0145	943.63519
0.01453125	943.52766
0.0145625	943.42019
0.01459375	943.31278
0.014625	943.20542
0.01465625	943.09812
0.0146875	942.99088
0.01471875	942.88369
0.01475	942.77655
0.01478125	942.66947
0.0148125	942.56245
0.01484375	942.45548
0.014875	942.34857
0.01490625	942.24172
0.0149375	942.13492
0.01496875	942.02818
0.015	941.9215
0.01503125	941.81488
0.0150625	941.70831
0.01509375	941.6018
0.015125	941.49536
0.01515625	941.38897
0.0151875	941.28265
0.01521875	941.17638
0.01525	941.07018
0.01528125	940.96404
0.0153125	940.85797
0.01534375	940.75196
0.015375	940.64602
0.01540625	940.54014
0.0154375	940.43433
0.01546875	940.32859
0.0155	940.22292
0.01553125	940.11731
0.0155625	940.01178
0.01559375	939.90631
0.015625	939.8009
0.01565625	939.69556
0.0156875	939.59029
0.01571875	939.48508
0.01575	939.37993
0.01578125	939.27484
0.0158125	939.1698
0.01584375	939.06483
0.015875	938.95991
0.01590625	938.85504
0.0159375	938.75022
0.01596875	938.64545
0.016	938.54073
0.01603125	938.43604
0.0160625	938.3314
0.01609375	938.22679
0.016125	938.12221
0.01615625	938.01767
0.0161875	937.91315
0.01621875	937.80865
0.01625	937.70418
0.01628125	937.59972
0.0163125	937.49527
0.01634375	937.39083
0.016375	937.2864
0.01640625	937.18197
0.0164375	937.07754
0.01646875	936.97311
0.0165	936.86868
0.01653125	936.76425
0.0165625	936.6598
0.01659375	936.55535
0.016625	936.45088
0.01665625	936.3464
0.0166875	936.2419
0.01671875	936.13739
0.01675	936.03285
0.01678125	935.92829
0.0168125	935.82371
0.01684375	935.71908
0.016875	935.61442
0.01690625	935.50972
0.0169375	935.40497
0.01696875	935.30017
0.017	935.19531
0.01703125	935.0904
0.0170625	934.98543
0.01709375	934.88039
0.017125	934.77529
0.01715625	934.67012
0.0171875	934.56487
0.01721875	934.45955
0.01725	934.35414
0.01728125	934.24864
0.0173125	934.14303
0.01734375	934.03731
0.017375	933.93147
0.01740625	933.82549
0.0174375	933.71938
0.01746875	933.61312
0.0175	933.50671
0.01753125	933.40015
0.0175625	933.29342
0.01759375	933.18653
0.017625	933.07947
0.01765625	932.97225
0.0176875	932.86485
0.01771875	932.75728
0.01775	932.64954
0.01778125	932.54164
0.0178125	932.43357
0.01784375	932.32533
0.017875	932.21693
0.01790625	932.10838
0.0179375	931.99967
0.01796875	931.89081
0.018	931.78182
0.01803125	931.67268
0.0180625	931.56342
0.01809375	931.45403
0.018125	931.34453
0.01815625	931.23491
0.0181875	931.12519
0.01821875	931.01537
0.01825	930.90546
0.01828125	930.79546
0.0183125	930.68538
0.01834375	930.57522
0.018375	930.465
0.01840625	930.35472
0.0184375	930.24438
0.01846875	930.13398
0.0185	930.02354
0.01853125	929.91305
0.0185625	929.80253
0.01859375	929.69197
0.018625	929.58137
0.01865625	929.47075
0.0186875	929.3601
0.01871875	929.24942
0.01875	929.13873
0.01878125	929.02801
0.0188125	928.91728
0.01884375	928.80653
0.018875	928.69576
0.01890625	928.58499
0.0189375	928.4742
0.01896875	928.3634
0.019	928.2526
0.019032258	928.13821
0.019064516	928.02381
0.019096774	927.90941
0.019129032	927.795
0.01916129	927.68059
0.019193548	927.56617
0.019225806	927.45175
0.019258065	927.33733
0.019290323	927.22291
0.019322581	927.10849
0.019354839	926.99406
0.019387097	926.87964
0.019419355	926.76522
0.019451613	926.6508
0.019483871	926.53639
0.019516129	926.42197
0.019548387	926.30757
0.019580645	926.19316
0.019612903	926.07877
0.019645161	925.96437
0.019677419	925.84999
0.019709677	925.73562
0.019741935	925.62125
0.019774194	925.50689
0.019806452	925.39254
0.01983871	925.27821
0.019870968	925.16388
0.019903226	925.04957
0.019935484	924.93527
0.019967742	924.82099
0.02	924.70672
0.020032258	924.59247
0.020064516	924.47823
0.020096774	924.36401
0.020129032	924.24981
0.02016129	924.13563
0.020193548	924.02146
0.020225806	923.90732
0.020258065	923.7932
0.020290323	923.67909
0.020322581	923.56501
0.020354839	923.45096
0.020387097	923.33692
0.020419355	923.22291
0.020451613	923.10892
0.020483871	922.99496
0.020516129	922.88103
0.020548387	922.76712
0.020580645	922.65324
0.020612903	922.53939
0.020645161	922.42556
0.020677419	922.31176
0.020709677	922.198
0.020741935	922.08426
0.020774194	921.97055
0.020806452	921.85687
0.02083871	921.74322
0.020870968	921.6296
0.020903226	921.51601
0.020935484	921.40245
0.020967742	921.28892
0.021	921.17542
0.021032258	921.06196
0.021064516	920.94853
0.021096774	920.83512
0.021129032	920.72175
0.02116129	920.60841
0.021193548	920.4951
0.021225806	920.38183
0.021258065	920.26858
0.021290323	920.15537
0.021322581	920.04219
0.021354839	919.92903
0.021387097	919.81591
0.021419355	919.70282
0.021451613	919.58977
0.021483871	919.47674
0.021516129	919.36374
0.021548387	919.25077
0.021580645	919.13783
0.021612903	919.02491
0.021645161	918.91203
0.021677419	918.79917
0.021709677	918.68634
0.021741935	918.57354
0.021774194	918.46076
0.021806452	918.34801
0.02183871	918.23529
0.021870968	918.12259
0.021903226	918.00991
0.021935484	917.89727
0.021967742	917.78464
0.022	917.67204
0.022032258	917.55946
0.022064516	917.44691
0.022096774	917.33438
0.022129032	917.22187
0.02216129	917.10939
0.022193548	916.99693
0.022225806	916.88449
0.022258065	916.77208
0.022290323	916.65969
0.022322581	916.54733
0.022354839	916.43498
0.022387097	916.32266
0.022419355	916.21037
0.022451613	916.0981
0.022483871	915.98585
0.022516129	915.87362
0.022548387	915.76142
0.022580645	915.64925
0.022612903	915.53709
0.022645161	915.42497
0.022677419	915.31287
0.022709677	915.20079
0.022741935	915.08874
0.022774194	914.97671
0.022806452	914.86471
0.02283871	914.75274
0.022870968	914.64079
0.022903226	914.52887
0.022935484	914.41697
0.022967742	914.3051
0.023	914.19326
0.023032258	914.08144
0.023064516	913.96965
0.023096774	913.85789
0.023129032	913.74616
0.02316129	913.63445
0.023193548	913.52277
0.023225806	913.41112
0.023258065	913.29949
0.023290323	913.1879
0.023322581	913.07633
0.023354839	912.96479
0.023387097	912.85328
0.023419355	912.7418
0.023451613	912.63035
0.023483871	912.51893
0.023516129	912.40754
0.023548387	912.29617
0.023580645	912.18484
0.023612903	912.07354
0.023645161	911.96228
0.023677419	911.85104
0.023709677	911.73983
0.023741935	911.62866
0.023774194	911.51752
0.023806452	911.40641
0.02383871	911.29533
0.023870968	911.18428
0.023903226	911.07327
0.023935484	910.96229
0.023967742	910.85135
0.024	910.74044
0.024032258	910.62956
0.024064516	910.51872
0.024096774	910.40791
0.024129032	910.29713
0.02416129	910.18639
0.024193548	910.07568
0.024225806	909.96501
0.024258065	909.85438
0.024290323	909.74378
0.024322581	909.63321
0.024354839	909.52268
0.024387097	909.41219
0.024419355	909.30173
0.024451613	909.1913
0.024483871	909.08092
0.024516129	908.97057
0.024548387	908.86025
0.024580645	908.74998
0.024612903	908.63973
0.024645161	908.52953
0.024677419	908.41936
0.024709677	908.30923
0.024741935	908.19914
0.024774194	908.08908
0.024806452	907.97906
0.02483871	907.86908
0.024870968	907.75913
0.024903226	907.64922
0.024935484	907.53935
0.024967742	907.42951
0.025	907.31971
0.025032258	907.20994
0.025064516	907.10021
0.025096774	906.99052
0.025129032	906.88086
0.02516129	906.77123
0.025193548	906.66163
0.025225806	906.55207
0.025258065	906.44254
0.025290323	906.33304
0.025322581	906.22356
0.025354839	906.11412
0.025387097	906.00471
0.025419355	905.89532
0.025451613	905.78596
0.025483871	905.67662
0.025516129	905.56731
0.025548387	905.45803
0.025580645	905.34876
0.025612903	905.23953
0.025645161	905.13031
0.025677419	905.02112
0.025709677	904.91194
0.025741935	904.80279
0.025774194	904.69365
0.025806452	904.58453
0.02583871	904.47542
0.025870968	904.36633
0.025903226	904.25726
0.025935484	904.1482
0.025967742	904.03915
0.026	903.93012
0.026032258	903.82109
0.026064516	903.71208
0.026096774	903.60308
0.026129032	903.49409
0.02616129	903.3851
0.026193548	903.27612
0.026225806	903.16715
0.026258065	903.05819
0.026290323	902.94923
0.026322581	902.84027
0.026354839	902.73132
0.026387097	902.62237
0.026419355	902.51343
0.026451613	902.40449
0.026483871	902.29555
0.026516129	902.18661
0.026548387	902.07768
0.026580645	901.96875
0.026612903	901.85982
0.026645161	901.75089
0.026677419	901.64197
0.026709677	901.53305
0.026741935	901.42412
0.026774194	901.3152
0.026806452	901.20629
0.02683871	901.09737
0.026870968	900.98846
0.026903226	900.87955
0.026935484	900.77064
0.026967742	900.66173
0.027	900.55283
0.027032258	900.44393
0.027064516	900.33504
0.027096774	900.22615
0.027129032	900.11726
0.02716129	900.00838
0.027193548	899.8995
0.027225806	899.79063
0.027258065	899.68176
0.027290323	899.5729
0.027322581	899.46405
0.027354839	899.3552
0.027387097	899.24636
0.027419355	899.13752
0.027451613	899.0287
0.027483871	898.91988
0.027516129	898.81107
0.027548387	898.70227
0.027580645	898.59348
0.027612903	898.48469
0.027645161	898.37592
0.027677419	898.26716
0.027709677	898.1584
0.027741935	898.04966
0.027774194	897.94093
0.027806452	897.83221
0.02783871	897.7235
0.027870968	897.6148
0.027903226	897.50611
0.027935484	897.39744
0.027967742	897.28878
0.028	897.18013
0.028032258	897.07149
0.028064516	896.96287
0.028096774	896.85426
0.028129032	896.74567
0.02816129	896.63708
0.028193548	896.52852
0.028225806	896.41996
0.028258065	896.31142
0.028290323	896.20289
0.028322581	896.09438
0.028354839	895.98589
0.028387097	895.8774
0.028419355	895.76894
0.028451613	895.66048
0.028483871	895.55205
0.028516129	895.44363
0.028548387	895.33522
0.028580645	895.22683
0.028612903	895.11845
0.028645161	895.01009
0.028677419	894.90175
